Price,Close,High,Low,Open,Volume
Ticker,ATR,ATR,ATR,ATR,ATR
Date,,,,,
2004-01-15,19.2858,19.3192,18.8046,19.0333,213800
2004-01-16,18.9142,19.2477,18.9142,19.2239,84200
2004-01-20,19.081,19.1096,18.838,18.8666,158800
2004-01-21,19.5193,19.5622,19.0667,19.1524,282800
2004-01-22,19.1524,19.4478,18.9666,19.4145,235000
2004-01-23,18.9714,19.1191,18.9333,19.0095,171400
2004-01-26,19.1096,19.2477,18.8189,19.0,143600
2004-01-27,19.1524,19.2286,18.9761,19.2286,85200
2004-01-28,19.1619,19.4383,19.0571,19.1048,206600
2004-01-29,19.0619,19.243,18.9285,19.1667,94400
2004-01-30,19.0905,19.2001,18.938,18.9857,69400
2004-02-02,19.1245,19.2679,19.0289,19.1723,80000
2004-02-03,19.1723,19.2679,19.0767,19.1723,78000
2004-02-04,18.981,19.244,18.981,19.1245,135400
2004-02-05,18.8137,19.1818,18.7659,18.9571,119600
2004-02-06,19.134,19.2679,18.7229,18.7229,86800
2004-02-09,19.2679,19.5404,19.244,19.244,62800
2004-02-10,19.5213,19.636,19.2822,19.2918,137000
2004-02-11,19.7938,19.8416,19.5309,19.5309,116000
2004-02-12,19.6504,20.0807,19.6026,19.7938,104800
2004-02-13,19.3779,19.8273,19.3635,19.6504,144200
2004-02-17,19.5835,19.6982,19.3874,19.4974,146000
2004-02-18,19.4305,19.6073,19.1245,19.6073,165200
2004-02-19,19.244,19.6504,19.244,19.3635,79000
2004-02-20,19.2679,19.3396,19.1388,19.1723,138800
2004-02-23,19.4257,19.5165,19.1866,19.244,199000
2004-02-24,19.1292,19.397,19.1005,19.3874,122600
2004-02-25,19.5069,19.5069,18.8854,19.048,136600
2004-02-26,19.3635,19.483,19.1627,19.483,114600
2004-02-27,19.3396,19.6121,19.0289,19.244,159800
2004-03-01,19.5691,19.636,19.4209,19.4352,95600
2004-03-02,19.2679,19.6121,19.2583,19.5309,104600
2004-03-03,19.244,19.3348,19.1484,19.3157,151200
2004-03-04,19.3109,19.3635,19.1484,19.1962,124200
2004-03-05,19.3396,19.4639,19.1531,19.3157,114400
2004-03-08,19.4161,19.4496,19.2392,19.354,102800
2004-03-09,19.2918,19.4305,19.2201,19.3874,93600
2004-03-10,18.7611,19.2201,18.7611,19.1723,105400
2004-03-11,18.3882,18.785,18.2878,18.7611,145800
2004-03-12,18.3595,18.4551,18.2878,18.4551,210000
2004-03-15,18.1921,18.3834,18.1491,18.3834,76600
2004-03-16,18.1682,18.3021,17.8097,17.8097,347400
2004-03-17,18.5125,18.5459,18.2878,18.2878,146600
2004-03-18,18.3834,18.4981,18.1682,18.1682,128400
2004-03-19,18.3547,18.5985,18.3547,18.4312,79000
2004-03-22,18.1778,18.4312,18.1778,18.2878,225200
2004-03-23,17.977,18.2973,17.977,18.24,186000
2004-03-24,17.8718,17.9579,17.5515,17.934,249200
2004-03-25,17.9531,17.9626,17.7857,17.9196,157000
2004-03-26,17.9865,18.1491,17.8957,17.9531,141600
2004-03-29,18.216,18.2304,18.0439,18.0487,111400
2004-03-30,18.4312,18.4455,18.0726,18.1204,141000
2004-03-31,18.3595,18.5268,18.2639,18.5268,134000
2004-04-01,18.5746,18.5746,18.24,18.3595,147200
2004-04-02,18.7324,18.7324,18.4073,18.5985,211600
2004-04-05,18.9619,18.9619,18.7181,18.7659,117200
2004-04-06,18.9141,19.0767,18.7707,18.9619,126600
2004-04-07,18.8137,18.9189,18.7181,18.8376,92000
2004-04-08,18.8472,19.1245,18.8424,18.9093,141400
2004-04-12,19.1723,19.1723,18.895,18.895,79200
2004-04-13,18.7276,19.4974,18.675,19.4113,135800
2004-04-14,18.6942,18.9858,18.6942,18.7659,108800
2004-04-15,18.8615,18.9045,18.4073,18.6464,107800
2004-04-16,19.1914,19.3157,18.8663,18.8663,131200
2004-04-19,19.4448,19.5309,19.1245,19.2201,179200
2004-04-20,19.2679,20.358,19.2679,19.4448,251200
2004-04-21,19.4113,19.4352,19.1388,19.1388,162800
2004-04-22,19.8273,19.8655,19.3157,19.3157,191400
2004-04-23,19.703,19.899,19.3635,19.3635,167000
2004-04-26,19.5787,19.8655,19.4878,19.6026,111800
2004-04-27,19.1245,19.6504,18.8376,19.5309,469400
2004-04-28,19.0433,19.384,19.0049,19.1969,152400
2004-04-29,18.7123,19.1489,18.4964,19.0769,144000
2004-04-30,18.8562,19.1153,18.4004,18.7123,211400
2004-05-03,18.8658,19.0242,18.7363,18.7603,254400
2004-05-04,19.2976,19.4512,18.8562,18.8562,184000
2004-05-05,19.1441,19.3648,19.0577,19.2401,139600
2004-05-06,19.0961,19.2496,18.8754,19.1921,154000
2004-05-07,18.8658,19.1681,18.7219,19.0242,213600
2004-05-10,18.2229,18.8322,18.2133,18.8322,302200
2004-05-11,18.3908,18.6451,18.2229,18.2325,121400
2004-05-12,18.7075,18.8034,18.0885,18.3908,178200
2004-05-13,18.7219,18.8802,18.5252,18.5875,112400
2004-05-14,18.4484,18.7459,18.4004,18.7219,97400
2004-05-17,18.1509,18.3524,18.0406,18.3524,179600
2004-05-18,18.2708,18.4004,18.0693,18.1653,216800
2004-05-19,18.5203,18.5252,18.2085,18.2085,158600
2004-05-20,18.6163,18.6643,18.4964,18.4964,101800
2004-05-21,18.8322,19.0242,18.6883,18.6883,217000
2004-05-24,19.0721,19.0913,18.9042,18.9042,251400
2004-05-25,19.312,19.312,19.0242,19.0242,179000
2004-05-26,19.312,19.36,19.1441,19.2401,155000
2004-05-27,19.5999,19.6143,19.0961,19.0961,255400
2004-05-28,19.5039,19.6335,19.4464,19.5999,149000
2004-06-01,19.4032,19.7966,19.3312,19.36,189600
2004-06-02,19.432,19.432,19.2401,19.4176,196000
2004-06-03,19.2496,19.6959,19.2496,19.384,198000
2004-06-04,19.5663,19.6479,19.2401,19.2496,146600
2004-06-07,19.6383,19.7535,19.5279,19.5279,137800
2004-06-08,19.6191,19.7774,19.48,19.6383,341400
2004-06-09,19.9406,19.9981,19.5039,19.5039,241000
2004-06-10,19.6095,20.0077,19.5903,19.9022,228600
2004-06-14,19.9502,20.1517,19.6479,19.6719,263800
2004-06-15,19.7199,20.0077,19.7199,19.9022,198000
2004-06-16,20.1805,20.2908,19.7343,19.7918,241800
2004-06-17,20.3724,20.5547,20.0461,20.0797,280600
2004-06-18,20.6603,20.7083,20.3004,20.3724,264000
2004-06-21,20.7754,20.8858,20.4156,20.5835,199000
2004-06-22,20.9338,21.0057,20.4923,20.6315,345000
2004-06-23,21.0345,21.1113,20.737,20.8474,227000
2004-06-24,20.9865,21.2073,20.7274,20.9674,264200
2004-06-25,20.4923,21.0057,20.4875,20.8714,2340400
2004-06-28,20.8042,20.905,20.3724,20.5403,332600
2004-06-29,21.0345,21.0777,20.7658,20.7658,327800
2004-06-30,20.9625,21.0825,20.7994,20.9578,177000
2004-07-01,20.5691,21.1449,20.4875,21.0825,217400
2004-07-02,20.6843,20.6987,20.5019,20.6171,124200
2004-07-06,20.5403,20.785,20.4156,20.7035,196400
2004-07-07,20.5499,20.7754,20.4779,20.6075,192600
2004-07-08,20.0797,20.6075,20.0317,20.454,170200
2004-07-09,20.2428,20.3244,20.0317,20.0317,116600
2004-07-12,20.3532,20.5691,20.0461,20.2476,123800
2004-07-13,20.454,20.6219,20.3052,20.3052,107800
2004-07-14,20.4923,20.8138,20.3916,20.4012,228000
2004-07-15,20.1853,20.4779,19.9837,20.3916,270200
2004-07-16,20.3244,20.5979,20.2236,20.3052,223200
2004-07-19,20.9194,21.0681,20.454,20.5355,417200
2004-07-20,21.4663,21.4663,20.9818,21.0153,248000
2004-07-21,20.9961,21.5239,20.9961,21.2792,287200
2004-07-22,20.7514,21.1017,20.6939,20.7274,220800
2004-07-23,20.496,20.9019,20.4622,20.8488,473200
2004-07-26,20.2738,20.6458,20.0757,20.5927,298000
2004-07-27,20.5202,20.6072,20.2206,20.2834,523000
2004-07-28,20.3124,20.6168,20.0854,20.6168,284400
2004-07-29,20.3463,20.4381,20.182,20.182,321200
2004-07-30,20.4429,20.5589,20.3221,20.4187,252200
2004-08-02,20.7715,20.7763,20.3076,20.3463,206400
2004-08-03,20.4816,20.7425,20.3559,20.7038,161800
2004-08-04,20.8633,20.9019,20.327,20.3898,197800
2004-08-05,20.3656,20.8004,20.3173,20.8004,248200
2004-08-06,19.7858,20.5299,19.7858,20.1965,219000
2004-08-09,19.9211,20.0032,19.7665,19.7906,177600
2004-08-10,20.5105,20.6168,19.9066,19.9211,175000
2004-08-11,20.5589,20.757,19.9984,20.3898,203600
2004-08-12,20.0709,20.4381,20.066,20.4381,160000
2004-08-13,20.2496,20.5202,20.1337,20.269,170800
2004-08-16,20.6893,20.7956,20.182,20.2013,162600
2004-08-17,20.8294,20.8971,20.6024,20.6941,145400
2004-08-18,21.1821,21.2305,20.5057,20.6313,167600
2004-08-19,20.8874,21.0614,20.8053,21.0614,175000
2004-08-20,21.4431,21.4769,20.8971,20.9454,165400
2004-08-23,21.3851,21.588,21.2353,21.588,232400
2004-08-24,21.5977,21.5977,21.3078,21.4141,100800
2004-08-25,22.0664,22.0809,21.4189,21.5252,181400
2004-08-26,21.9359,22.0615,21.8103,22.0084,261800
2004-08-27,21.9649,22.0132,21.6943,21.8393,159400
2004-08-30,21.4576,21.8876,21.4286,21.8876,171600
2004-08-31,21.9552,22.018,21.5011,21.5011,138400
2004-09-01,21.7668,22.2065,21.6412,21.8876,184800
2004-09-02,22.5882,22.5882,21.646,21.646,127200
2004-09-03,22.1775,22.6607,22.1292,22.5882,130400
2004-09-07,22.6365,22.6365,22.1437,22.1775,114600
2004-09-08,21.762,22.3466,21.7571,22.3466,200400
2004-09-09,22.4626,22.5495,21.762,21.762,321600
2004-09-10,22.0809,22.4432,21.9601,22.4432,132600
2004-09-13,22.0664,22.221,21.8634,22.0325,125600
2004-09-14,22.0615,22.105,21.8634,21.9939,113000
2004-09-15,22.0277,22.0905,21.8393,22.0615,79400
2004-09-16,22.3031,22.3031,21.9842,22.076,109600
2004-09-17,21.9987,22.3708,21.8586,22.3514,249600
2004-09-20,22.0084,22.0664,21.7426,21.8393,104000
2004-09-21,22.4819,22.4915,22.0325,22.0567,103400
2004-09-22,21.8876,22.3611,21.8827,22.3611,225400
2004-09-23,21.646,22.0325,21.6267,21.9166,65000
2004-09-24,21.6605,21.8151,21.559,21.646,133400
2004-09-27,21.3464,21.5252,21.2353,21.5011,130800
2004-09-28,21.0855,21.3948,20.9792,21.2353,236600
2004-09-29,21.2643,21.4044,20.9357,21.0903,267400
2004-09-30,21.245,21.3609,21.1628,21.1628,175600
2004-10-01,22.0325,22.0325,21.3078,21.3609,248200
2004-10-04,21.8731,22.2306,21.6653,21.8634,198200
2004-10-05,21.8296,21.9987,21.791,21.791,283000
2004-10-06,22.3756,22.3756,21.6943,21.7668,178800
2004-10-07,21.6267,22.2016,21.6267,22.1292,196600
2004-10-08,21.7426,21.8876,21.5494,21.5735,155200
2004-10-11,21.7668,21.8393,21.5977,21.7475,101200
2004-10-12,21.791,21.9359,21.5494,21.6943,154800
2004-10-13,21.704,21.9359,21.5107,21.9359,214800
2004-10-14,21.6218,21.7426,21.5011,21.704,188000
2004-10-15,22.2258,22.7476,21.8151,22.0325,545400
2004-10-18,22.2258,22.5399,21.989,22.105,367000
2004-10-19,22.1388,22.3079,22.0325,22.2983,266800
2004-10-20,22.2065,22.3901,21.9939,22.0905,194800
2004-10-21,22.8636,22.9747,22.3901,22.709,247400
2004-10-22,22.2306,23.0713,22.2258,23.0713,176000
2004-10-25,22.6075,22.8636,22.0422,22.1292,254400
2004-10-26,23.0408,23.1186,22.3891,22.6274,162800
2004-10-27,22.856,23.0505,22.6712,22.9289,287200
2004-10-28,23.2159,23.2256,22.6371,22.7344,136200
2004-10-29,22.8171,23.3471,22.7782,23.1721,191200
2004-11-01,23.5854,23.5854,22.6858,22.856,207800
2004-11-02,22.8122,23.5368,22.6615,23.4882,261400
2004-11-03,23.7702,23.7702,22.9289,22.9289,182600
2004-11-04,24.2906,24.2906,23.3374,23.6487,174800
2004-11-05,24.1349,24.3003,23.8918,24.2711,234400
2004-11-08,23.5757,24.2662,23.5514,24.1204,194200
2004-11-09,23.7459,23.9356,23.352,23.352,247400
2004-11-10,23.8772,24.0231,23.5854,23.5854,168800
2004-11-11,24.3343,24.3392,23.8334,23.8821,170400
2004-11-12,24.3149,24.3149,24.0717,24.1447,115200
2004-11-15,24.4219,24.4364,24.1495,24.3149,125600
2004-11-16,24.1641,24.5678,24.1447,24.3197,173000
2004-11-17,24.6553,24.772,24.203,24.203,166800
2004-11-18,24.5483,24.6553,24.2128,24.5823,127800
2004-11-19,24.1933,24.451,24.169,24.451,287000
2004-11-22,24.2662,24.5045,24.0717,24.0717,174800
2004-11-23,24.5532,24.8012,24.1447,24.1447,223000
2004-11-24,24.8741,25.0103,24.4608,24.4608,179400
2004-11-26,24.8547,25.0638,24.7623,24.7623,26600
2004-11-29,25.5355,25.7495,24.8012,24.9519,201800
2004-11-30,25.5549,25.8078,25.3847,25.4236,215000
2004-12-01,26.1628,26.1871,25.1173,25.1173,294400
2004-12-02,25.9196,26.2212,25.8953,26.0899,198000
2004-12-03,25.5355,25.9926,25.5355,25.9488,132000
2004-12-06,25.2194,25.5355,25.2048,25.5355,157600
2004-12-07,24.5483,25.268,24.5434,25.268,331200
2004-12-08,24.9082,24.9471,24.4364,24.5483,487400
2004-12-09,25.0978,25.127,24.4802,24.8498,187000
2004-12-10,25.1902,25.2729,24.6699,25.0005,162400
2004-12-13,25.8808,25.8808,25.2145,25.2875,160400
2004-12-14,26.0169,26.1823,25.7495,25.8321,239000
2004-12-15,26.1045,26.1239,25.6279,25.944,188600
2004-12-16,25.7738,26.0218,25.5647,25.8953,155800
2004-12-17,25.5306,25.9975,25.5306,25.7738,269000
2004-12-20,25.5014,25.8856,25.4042,25.6522,142400
2004-12-21,26.0655,26.0655,25.4966,25.4966,208800
2004-12-22,26.4692,26.654,26.1871,26.1871,152000
2004-12-23,26.1968,26.6929,26.1968,26.5907,165200
2004-12-27,25.6473,26.333,25.6473,26.1385,121000
2004-12-28,26.2844,26.3671,25.7251,25.7251,160600
2004-12-29,25.9537,26.2358,25.7835,26.1628,108000
2004-12-30,26.0023,26.1093,25.871,25.871,65000
2004-12-31,25.6668,26.1336,25.6425,25.944,106200
2005-01-03,25.7495,26.6929,25.6717,25.7495,349200
2005-01-04,24.9714,25.9829,24.9617,25.7981,224000
2005-01-05,24.3149,25.0054,24.31,24.9471,272600
2005-01-06,24.5629,24.7769,24.2662,24.3149,159800
2005-01-07,23.8286,24.5872,23.7265,24.5872,267600
2005-01-10,24.1252,24.5483,23.707,23.707,225200
2005-01-11,23.9599,24.2322,23.7459,24.1252,183000
2005-01-12,23.8529,23.9064,23.245,23.8626,293400
2005-01-13,23.4152,23.9599,23.3763,23.8967,216200
2005-01-14,23.8237,23.8772,23.3423,23.4882,202000
2005-01-18,24.1593,24.1982,23.7119,23.7313,178800
2005-01-19,23.5854,24.2954,23.5806,23.9988,180800
2005-01-20,23.5903,23.8529,23.3423,23.5125,188000
2005-01-21,23.6341,23.9161,23.5028,23.6535,118000
2005-01-24,23.2304,23.7556,23.1623,23.6341,100400
2005-01-25,23.2547,23.6243,23.0991,23.2499,106600
2005-01-26,23.5319,23.5417,23.1575,23.1575,152400
2005-01-27,23.3763,23.7167,23.3326,23.4882,135600
2005-01-28,23.1234,23.5271,22.9921,23.4152,197400
2005-01-31,23.7304,23.8332,23.3193,23.3193,172800
2005-02-01,23.8136,24.0681,23.5542,23.6913,180200
2005-02-02,24.0779,24.2247,23.6864,23.7598,154200
2005-02-03,24.2198,24.2492,23.5885,23.98,205400
2005-02-04,24.5428,24.5673,24.1268,24.1268,146800
2005-02-07,24.4107,24.7875,24.2834,24.7875,179000
2005-02-08,24.5232,24.5232,24.0681,24.2883,109800
2005-02-09,24.0534,24.6064,23.8528,24.4596,196000
2005-02-10,24.0828,24.1856,23.5885,24.0534,184800
2005-02-11,24.3177,24.3226,23.5885,24.2736,194800
2005-02-14,24.1268,24.6456,24.0289,24.2247,238400
2005-02-15,24.1366,24.4351,24.0534,24.1758,211400
2005-02-16,24.3128,24.6945,23.9506,23.98,256200
2005-02-17,24.1562,24.4988,24.1121,24.2736,199800
2005-02-18,24.4205,24.5134,24.1856,24.3715,116400
2005-02-22,23.98,24.4107,23.9311,24.2981,229200
2005-02-23,24.3177,24.5917,24.0534,24.0534,252000
2005-02-24,24.8364,24.9049,24.0583,24.396,146800
2005-02-25,25.4041,25.4041,24.7141,24.812,212600
2005-02-28,25.2622,25.4384,24.8169,25.3258,290400
2005-03-01,25.4482,25.6097,25.2279,25.2622,193400
2005-03-02,25.2916,25.732,25.2769,25.5705,185200
2005-03-03,25.6586,25.6831,25.2916,25.3503,144000
2005-03-04,25.8495,26.1089,25.4971,25.5363,156000
2005-03-07,25.5411,26.0648,25.4335,25.7907,133600
2005-03-08,25.5754,25.7516,25.4286,25.5411,132600
2005-03-09,25.4922,25.7907,25.1105,25.6048,127600
2005-03-10,24.9686,25.4922,24.9539,25.4922,226400
2005-03-11,25.2279,25.3943,24.8903,25.0664,220200
2005-03-14,25.4531,25.6488,25.1301,25.1301,139800
2005-03-15,25.1839,25.8397,25.1643,25.6439,201200
2005-03-16,25.0567,25.2035,24.812,25.1301,238800
2005-03-17,24.9979,25.2035,24.8267,25.2035,125800
2005-03-18,25.042,25.3503,24.7288,25.3503,410200
2005-03-21,25.0713,25.179,24.8364,25.1056,117000
2005-03-22,24.67,25.3552,24.6407,24.9832,208800
2005-03-23,24.3617,24.6945,24.1366,24.5673,233600
2005-03-24,24.4156,24.7141,24.303,24.4107,143800
2005-03-28,24.6211,24.7777,24.2785,24.4939,194200
2005-03-29,24.8511,25.8446,24.5379,24.5722,554400
2005-03-30,25.7271,25.7907,24.9392,24.9392,320400
2005-03-31,25.4384,26.0354,25.2524,25.595,308200
2005-04-01,25.9376,26.0208,25.4335,25.4971,369600
2005-04-04,26.0452,26.1871,25.6439,25.9963,316800
2005-04-05,26.1431,26.4172,26.0648,26.1089,194400
2005-04-06,26.4367,26.8527,26.148,26.148,290400
2005-04-07,26.5346,26.6961,25.8299,26.4416,142800
2005-04-08,25.8201,26.5346,25.7516,26.5297,178000
2005-04-11,25.7956,26.1186,25.6978,25.8788,156800
2005-04-12,25.9278,26.0305,25.0224,25.6929,587000
2005-04-13,25.1986,25.9278,25.1105,25.9278,353800
2005-04-14,24.4743,25.2769,24.4743,25.2181,292000
2005-04-15,23.9751,24.812,23.8332,24.812,486800
2005-04-18,24.67,24.812,23.3389,23.7353,393600
2005-04-19,24.6358,24.9686,24.3764,24.7239,306200
2005-04-20,23.9555,24.4254,23.9457,24.3226,301400
2005-04-21,24.4449,24.6309,24.1024,24.2002,296400
2005-04-22,24.1513,24.582,23.7598,24.396,254200
2005-04-25,24.3324,24.4058,23.9947,24.1317,216800
2005-04-26,23.4906,24.3324,23.3878,24.3324,428200
2005-04-27,23.8746,24.2538,23.1458,23.5644,254600
2005-04-28,23.3575,23.9042,23.2393,23.7515,248000
2005-04-29,23.7515,23.9189,23.1458,23.456,241600
2005-05-02,23.8352,24.0815,23.7269,23.786,221200
2005-05-03,23.9091,24.1996,23.8008,23.9583,265800
2005-05-04,24.7955,24.7955,23.983,24.0322,287200
2005-05-05,24.633,25.0959,24.5887,24.7463,221200
2005-05-06,25.1156,25.1452,24.6478,24.6921,190600
2005-05-09,25.2782,25.3569,25.0762,25.1501,264000
2005-05-10,24.7906,25.1009,24.6724,24.9679,257400
2005-05-11,24.8349,24.9679,24.5345,24.8398,165200
2005-05-12,24.3868,24.958,24.3819,24.83,217600
2005-05-13,24.2932,24.505,24.1356,24.4262,211800
2005-05-16,24.5247,24.7463,24.2144,24.3129,181400
2005-05-17,25.1255,25.224,24.3474,24.4016,259400
2005-05-18,25.677,25.9085,25.1403,25.288,250400
2005-05-19,25.2683,25.7066,25.027,25.6672,196600
2005-05-20,25.0762,25.2831,24.6675,25.2831,197600
2005-05-23,25.2043,25.3717,25.0171,25.0812,145000
2005-05-24,25.4308,25.5638,24.7364,25.1156,288200
2005-05-25,24.7069,25.3126,24.5542,25.3126,297800
2005-05-26,25.1452,25.1846,24.7857,24.8694,135800
2005-05-27,25.1944,25.219,24.7512,25.0959,124400
2005-05-31,24.6232,25.1107,24.6232,25.1107,239200
2005-06-01,24.8202,25.0959,24.5148,24.6626,216800
2005-06-02,24.6527,24.8349,24.5493,24.7709,213800
2005-06-03,24.3031,24.7906,24.1307,24.5296,289800
2005-06-06,24.4705,24.5394,24.0371,24.3425,290200
2005-06-07,24.1455,24.9383,24.1307,24.5493,257600
2005-06-08,23.9239,24.2834,23.8254,24.2686,184800
2005-06-09,24.1652,24.1652,23.6136,23.9239,130800
2005-06-10,24.1406,24.2785,24.0273,24.1652,135600
2005-06-13,24.1603,24.4508,24.0076,24.0076,218400
2005-06-14,24.5394,24.6084,24.0618,24.1012,306200
2005-06-15,24.5,24.7217,24.0913,24.6232,165400
2005-06-16,24.8398,24.8645,24.2785,24.4262,141600
2005-06-17,24.5247,25.091,24.3966,25.0171,398000
2005-06-20,24.1701,24.5,24.1307,24.4065,188400
2005-06-21,24.4607,24.5493,24.0322,24.1849,203000
2005-06-22,24.3917,24.6872,24.175,24.5148,141200
2005-06-23,24.1307,24.4459,24.0765,24.3425,346000
2005-06-24,24.3966,24.441,23.8845,24.0913,2189600
2005-06-27,24.2538,24.4459,24.1307,24.3228,428200
2005-06-28,24.633,24.7364,24.1553,24.2538,265400
2005-06-29,24.9383,25.0565,24.6232,24.6626,524400
2005-06-30,25.0171,25.3028,24.958,25.0368,314800
2005-07-01,25.1156,25.1796,24.8005,25.0171,158400
2005-07-05,25.0762,25.155,24.9433,25.0467,103800
2005-07-06,24.6379,25.0812,24.5739,24.9925,148800
2005-07-07,24.6429,24.6478,24.2538,24.4508,129800
2005-07-08,25.2683,25.3077,24.6379,24.6823,221600
2005-07-11,25.5884,25.6574,25.352,25.352,147200
2005-07-12,25.3766,25.6032,25.2634,25.5539,224200
2005-07-13,25.091,25.485,24.9679,25.3914,191400
2005-07-14,25.027,25.3914,24.9334,25.3126,132800
2005-07-15,24.7266,25.1304,24.6133,25.0368,151000
2005-07-18,24.4656,24.8152,24.3819,24.6872,176000
2005-07-19,24.7463,24.8694,24.3277,24.5444,208400
2005-07-20,24.958,25.0418,24.6035,24.6035,119000
2005-07-21,24.7118,25.1107,24.7118,25.0664,310200
2005-07-22,24.8005,25.0812,24.6232,24.8202,238600
2005-07-25,24.6232,25.0664,24.4804,24.8054,209200
2005-07-26,24.766,24.9679,24.5444,24.6527,286400
2005-07-27,24.6626,24.9236,24.5641,24.8054,246600
2005-07-28,25.0073,25.1107,24.7266,24.7266,151200
2005-07-29,24.6464,24.9776,24.5623,24.8837,163800
2005-08-01,24.7156,24.8046,24.6464,24.7008,241400
2005-08-02,24.9331,24.9529,24.587,24.7205,196800
2005-08-03,24.9727,25.037,24.7453,24.8689,129600
2005-08-04,24.943,25.0023,24.5524,24.8689,298800
2005-08-05,24.7205,25.0122,24.7057,24.8689,240800
2005-08-08,24.7008,24.943,24.6859,24.8194,175600
2005-08-09,24.77,25.0666,24.7008,24.77,98000
2005-08-10,24.9183,24.9183,24.6958,24.854,173200
2005-08-11,25.032,25.0814,24.6513,24.8639,268600
2005-08-12,24.7848,25.037,24.6563,24.9677,156600
2005-08-15,24.8787,25.0666,24.7848,24.7848,181400
2005-08-16,24.3992,24.9331,24.2953,24.8441,220600
2005-08-17,24.1618,24.4733,24.152,24.4733,225800
2005-08-18,24.2261,24.325,24.0333,24.1569,131600
2005-08-19,24.2904,24.5425,24.2657,24.325,103800
2005-08-22,24.3102,24.4882,24.2113,24.3448,75200
2005-08-23,24.1273,24.3398,24.0926,24.3052,81000
2005-08-24,24.0481,24.3794,24.0234,24.0382,106800
2005-08-25,24.0728,24.2162,23.9888,24.0531,52000
2005-08-26,23.8405,24.1273,23.8405,24.0778,93400
2005-08-29,24.1767,24.1767,23.6328,23.7367,142400
2005-08-30,24.1173,24.1965,24.0135,24.1322,109000
2005-08-31,24.587,24.587,23.88,23.88,212600
2005-09-01,24.6217,24.943,24.5673,24.587,125400
2005-09-02,24.6266,24.765,24.5821,24.681,95000
2005-09-06,24.8095,24.9776,24.7057,24.7205,130800
2005-09-07,24.7304,24.7749,24.3596,24.5228,134000
2005-09-08,24.6909,25.215,24.4733,24.6266,63400
2005-09-09,24.5178,24.6612,24.3052,24.6464,94600
2005-09-12,24.7551,24.8441,24.4486,24.4486,65400
2005-09-13,24.2409,24.6612,24.1915,24.6563,84200
2005-09-14,23.796,24.2706,23.7367,24.2311,119800
2005-09-15,23.8701,23.9295,23.7762,23.796,89800
2005-09-16,24.0284,24.0333,23.8454,23.9295,334400
2005-09-19,24.0284,24.2459,23.9641,23.9789,137400
2005-09-20,23.9937,24.1371,23.9245,23.9542,181000
2005-09-21,23.5587,23.9839,23.3016,23.9443,206400
2005-09-22,23.5092,23.6971,23.2917,23.5587,409400
2005-09-23,23.796,23.8256,23.3609,23.4202,220600
2005-09-26,25.0172,25.0864,24.6464,24.7205,396000
2005-09-27,24.676,25.032,24.676,24.9183,278000
2005-09-28,24.5673,24.7205,24.3745,24.7205,150800
2005-09-29,24.6118,24.6612,24.3596,24.4684,73400
2005-09-30,24.6266,24.8145,24.5475,24.6612,139800
2005-10-03,24.9677,25.1655,24.7304,24.7453,300200
2005-10-04,24.943,25.1556,24.9183,25.0913,255400
2005-10-05,24.4437,24.948,24.2904,24.948,211400
2005-10-06,24.5475,24.6859,24.2509,24.4437,155000
2005-10-07,24.681,24.9183,24.3942,24.6266,148400
2005-10-10,24.4239,24.6217,24.2064,24.4486,447000
2005-10-11,24.7008,24.9875,24.6958,24.7205,137800
2005-10-12,24.7897,24.9578,24.4387,24.6513,189400
2005-10-13,25.1853,25.2594,24.77,24.8194,310600
2005-10-14,25.6846,25.8132,25.0567,25.2347,247600
2005-10-17,25.7539,25.8873,25.4869,25.7094,245400
2005-10-18,25.8082,26.0406,25.6105,25.6599,275800
2005-10-19,26.1543,26.1543,25.5264,25.9071,121800
2005-10-20,23.8158,25.4226,23.7515,25.2891,966200
2005-10-21,23.9789,24.2706,23.534,23.8553,378200
2005-10-24,24.0531,24.1668,23.8454,23.88,430400
2005-10-25,24.2904,24.3745,23.9394,23.9394,320000
2005-10-26,24.681,24.9925,24.2904,24.2904,372400
2005-10-27,24.6266,24.6661,24.4733,24.5574,270600
2005-10-28,25.0073,25.1012,24.6217,24.7205,288800
2005-10-31,25.3795,25.4589,25.0519,25.0816,181400
2005-11-01,25.4688,25.6128,24.9526,25.5631,142800
2005-11-02,25.5879,25.712,25.0717,25.3547,138800
2005-11-03,26.0446,26.0446,25.4242,25.4887,333400
2005-11-04,25.9007,26.134,25.712,26.0347,138600
2005-11-07,26.2332,26.3474,25.9354,25.9602,177200
2005-11-08,26.1091,26.1836,25.5383,26.134,116600
2005-11-09,25.8113,26.2183,25.7269,26.1141,196400
2005-11-10,26.2829,26.2829,25.3894,25.8361,193600
2005-11-11,26.2581,26.3325,25.8858,26.2581,63800
2005-11-14,26.3027,26.3821,26.129,26.134,75800
2005-11-15,26.1687,26.3573,25.9851,26.3573,98600
2005-11-16,26.2183,26.2878,25.8858,26.0247,121800
2005-11-17,26.4864,27.0175,26.2084,26.2779,164000
2005-11-18,26.6154,26.6154,26.1836,26.5559,128400
2005-11-21,26.6849,26.7892,26.3821,26.5608,169800
2005-11-22,26.5112,26.6601,26.3573,26.3573,133200
2005-11-23,26.5162,26.6204,26.3077,26.3077,85200
2005-11-25,26.814,26.8736,26.407,26.407,37600
2005-11-28,26.1886,27.0324,26.1886,26.9778,171200
2005-11-29,27.092,27.2508,26.1935,26.1935,411800
2005-11-30,27.226,27.2508,26.8239,27.1515,206000
2005-12-01,27.0771,27.3004,27.0423,27.1317,176200
2005-12-02,27.1515,27.2955,27.0026,27.1019,131600
2005-12-05,27.3004,27.5238,27.0622,27.1019,452000
2005-12-06,27.1416,27.5387,27.0969,27.3004,232400
2005-12-07,27.0026,27.3253,26.9133,27.3253,140000
2005-12-08,26.9282,27.1912,26.6899,26.953,123400
2005-12-09,27.0473,27.2707,26.7594,26.9282,301600
2005-12-12,27.2458,27.2955,27.0423,27.0622,131000
2005-12-13,26.9927,27.3004,26.9282,27.2558,265600
2005-12-14,26.948,27.1217,26.7792,26.953,164600
2005-12-15,26.5757,26.9778,26.3127,26.943,157400
2005-12-16,26.1091,26.6998,26.0099,26.6998,374800
2005-12-19,26.1091,26.3623,25.9106,25.9851,136800
2005-12-20,26.1637,26.2233,25.8262,25.995,164000
2005-12-21,26.0843,26.3821,25.8113,26.2878,245800
2005-12-22,26.0099,26.2779,25.8113,26.0744,574600
2005-12-23,26.3424,26.3821,25.8113,25.9404,78200
2005-12-27,26.2332,26.6601,26.1538,26.2928,150000
2005-12-28,26.3325,26.397,26.1091,26.397,91000
2005-12-29,26.1886,26.4913,26.134,26.3325,106600
2005-12-30,25.9106,26.3077,25.8858,26.1588,114600
2006-01-03,26.0595,26.0595,25.6674,25.995,246400
2006-01-04,26.5658,26.6353,25.8461,26.0595,287200
2006-01-05,26.541,26.814,26.2878,26.3077,157200
2006-01-06,26.6005,26.8338,26.3077,26.3673,128000
2006-01-09,26.7991,26.953,26.6005,26.6005,134400
2006-01-10,26.9877,27.1763,26.6816,26.7445,134800
2006-01-11,27.0175,27.1118,26.7395,26.7395,149400
2006-01-12,26.9827,27.1416,26.9182,26.953,102000
2006-01-13,26.8785,27.0522,26.7792,26.9827,85000
2006-01-17,26.7097,27.0373,26.6998,26.8239,103200
2006-01-18,26.814,26.9133,26.5608,26.6502,87600
2006-01-19,26.8835,27.1416,26.8239,26.9133,109600
2006-01-20,27.3302,27.3997,26.8835,26.9282,136600
2006-01-23,26.8338,27.3401,26.6254,27.3401,161600
2006-01-24,27.1912,27.2012,26.7544,26.7544,82200
2006-01-25,27.3004,27.3799,27.0771,27.1962,129800
2006-01-26,27.4742,27.499,27.1217,27.3004,161600
2006-01-27,27.1912,27.5734,27.1912,27.5238,86200
2006-01-30,27.251,27.6645,27.1912,27.1912,151400
2006-01-31,28.1178,28.1178,27.1514,27.2012,176400
2006-02-01,28.073,28.1477,27.6944,28.0232,150200
2006-02-02,27.9584,28.3321,27.9136,28.1228,236400
2006-02-03,27.5798,27.6246,27.251,27.4004,120000
2006-02-06,27.8737,27.9285,27.4303,27.5798,87400
2006-02-07,27.1563,27.789,27.0567,27.789,95800
2006-02-08,27.3556,27.3556,27.0467,27.1015,71000
2006-02-09,27.4104,27.6545,27.1912,27.241,73600
2006-02-10,28.3769,28.621,27.6994,27.9086,375600
2006-02-13,27.1115,28.3121,26.9371,28.3121,258200
2006-02-14,27.3407,27.6246,27.0667,27.0766,229800
2006-02-15,27.3407,27.5499,27.0517,27.2809,267600
2006-02-16,27.0268,27.3207,26.7877,27.2759,174600
2006-02-17,27.0368,27.2261,26.5934,26.8574,275400
2006-02-21,26.8773,27.0318,26.7578,26.8873,142000
2006-02-22,26.8624,26.987,26.6681,26.8524,282800
2006-02-23,26.7179,26.9072,26.6133,26.8773,144800
2006-02-24,26.7927,26.8624,26.6233,26.7827,120000
2006-02-27,26.5585,26.8225,26.5286,26.7129,188600
2006-02-28,26.429,26.6382,26.1301,26.6083,169200
2006-03-01,26.8225,26.8475,26.429,26.5187,128600
2006-03-02,26.8574,26.9869,26.7628,26.8375,126000
2006-03-03,26.6133,27.0019,26.5535,26.7927,182600
2006-03-06,26.4041,26.7528,26.2546,26.6432,128600
2006-03-07,26.5485,26.6631,26.145,26.4041,193200
2006-03-08,26.698,26.7578,26.4041,26.5137,157200
2006-03-09,26.693,26.9023,26.5834,26.6033,254000
2006-03-10,27.0517,27.0517,26.7528,26.7528,111600
2006-03-13,27.0069,27.2759,26.9222,26.9869,129400
2006-03-14,27.0467,27.2161,26.8973,27.0019,285800
2006-03-15,27.1015,27.2958,26.8674,27.1015,130600
2006-03-16,27.251,27.5648,27.1414,27.2111,113200
2006-03-17,27.4004,27.5001,27.1912,27.3755,142200
2006-03-20,27.52,27.5549,27.1264,27.4004,209600
2006-03-21,27.261,27.525,27.0716,27.4702,147000
2006-03-22,27.3207,27.3506,26.9919,27.2062,173400
2006-03-23,27.246,27.3606,27.1165,27.3207,60800
2006-03-24,27.1314,27.3755,27.0816,27.2908,114800
2006-03-27,27.0019,27.2908,26.8574,27.0667,68400
2006-03-28,26.698,27.0019,26.6631,26.9321,99200
2006-03-29,27.241,27.2759,26.6581,26.6581,299400
2006-03-30,27.3257,27.4702,26.977,27.1962,268600
2006-03-31,27.525,27.5698,27.2062,27.2709,164600
2006-04-03,26.977,27.5648,26.8176,27.525,216600
2006-04-04,27.4054,27.5001,26.8823,27.0268,206800
2006-04-05,26.688,27.4254,26.5635,27.3008,170000
2006-04-06,26.6831,26.9869,26.4539,26.688,116600
2006-04-07,26.693,27.1663,26.4987,26.6831,98200
2006-04-10,26.1649,26.6283,26.1002,26.6183,272200
2006-04-11,26.14,26.4041,26.0852,26.1151,109600
2006-04-12,26.2845,26.3592,26.0703,26.0703,59600
2006-04-13,26.2795,26.3443,26.0653,26.2397,46200
2006-04-17,26.2994,27.0119,26.155,26.4041,126600
2006-04-18,26.4838,26.6482,26.0703,26.3792,245200
2006-04-19,26.7727,26.9969,26.3592,26.4041,125000
2006-04-20,26.6283,26.9919,26.4539,26.8524,82400
2006-04-21,26.0553,26.4688,25.4177,25.7564,408600
2006-04-24,25.8112,26.14,25.7913,26.1052,156800
2006-04-25,26.145,26.2297,25.597,25.7614,195400
2006-04-26,26.0304,26.414,25.9308,26.0653,293400
2006-04-27,26.0304,26.3194,25.7066,25.9806,196400
2006-04-28,26.1101,26.2646,25.9308,26.0055,294000
2006-05-01,26.1749,26.3792,26.0852,26.1101,214200
2006-05-02,26.2945,26.4489,25.9806,26.1749,169600
2006-05-03,26.429,26.6233,26.1649,26.2546,164000
2006-05-04,26.6133,26.7777,26.2088,26.3642,167800
2006-05-05,26.8873,26.9869,26.424,26.6183,80400
2006-05-08,27.0816,27.251,26.8276,26.9222,123800
2006-05-09,26.9919,27.0916,26.698,27.0019,115200
2006-05-10,26.8425,27.0368,26.7229,26.962,89200
2006-05-11,26.5087,26.8026,26.4838,26.8026,137600
2006-05-12,26.3592,26.7279,26.0155,26.4041,177000
2006-05-15,26.2546,26.6482,25.9607,26.3592,219000
2006-05-16,26.2397,26.3094,26.1301,26.2247,149600
2006-05-17,26.0454,26.2696,25.861,26.1898,117800
2006-05-18,25.9059,26.2247,25.8062,26.0902,125600
2006-05-19,26.0055,26.1799,25.7913,25.9358,126200
2006-05-22,26.0504,26.2197,25.5821,25.9408,331600
2006-05-23,25.7116,26.0802,25.5273,26.0553,292200
2006-05-24,25.7564,25.8909,25.1088,25.6568,353800
2006-05-25,25.7116,25.9059,25.5322,25.8212,141400
2006-05-26,25.7714,26.0055,25.7116,25.7215,105200
2006-05-30,25.6917,25.9806,25.587,25.7564,125600
2006-05-31,26.2048,26.2446,25.5821,25.7166,316200
2006-06-01,26.1799,26.3144,25.9607,26.155,266600
2006-06-02,26.2197,26.2795,25.7863,26.2347,290400
2006-06-05,26.2098,26.4539,26.0504,26.2197,406000
2006-06-06,26.1151,26.414,25.9507,26.1749,232000
2006-06-07,26.2297,26.414,26.0952,26.0952,200800
2006-06-08,25.9158,26.0553,25.2632,25.8561,286400
2006-06-09,25.8062,26.0753,25.6219,25.9557,133000
2006-06-12,25.587,25.9009,25.3429,25.7714,154000
2006-06-13,25.1337,25.7365,24.9195,25.5023,223800
2006-06-14,25.0988,25.3878,24.8647,25.059,225200
2006-06-15,25.328,25.5322,24.7999,25.0042,266600
2006-06-16,25.2483,25.4575,24.9494,25.3529,164000
2006-06-19,24.9593,25.3828,24.8447,25.3081,193600
2006-06-20,24.9942,25.1835,24.7152,24.9444,146800
2006-06-21,25.1885,25.2632,24.8597,24.9444,257000
2006-06-22,24.9195,25.2483,24.8647,25.1586,248600
2006-06-23,25.1636,25.3188,24.7451,24.9145,172600
2006-06-26,25.5273,25.6369,25.1835,25.2333,250000
2006-06-27,25.2831,25.7265,25.2831,25.5322,235400
2006-06-28,25.4575,25.4725,25.2084,25.4077,127600
2006-06-29,26.0952,26.1159,25.5821,25.5821,291200
2006-06-30,24.7152,26.4041,24.7152,26.155,3901200
2006-07-03,25.3579,25.5422,24.9842,25.0888,686000
2006-07-05,25.1436,25.2234,24.8447,25.1088,450600
2006-07-06,25.1486,25.5821,24.9892,25.5821,462000
2006-07-07,24.5359,25.1636,24.4761,25.049,276000
2006-07-10,24.9892,25.2782,24.5508,24.5508,375800
2006-07-11,25.1138,25.1486,24.5159,24.8896,349400
2006-07-12,24.2967,25.1187,24.2868,25.0141,242800
2006-07-13,23.7238,24.232,23.679,24.1722,335400
2006-07-14,23.7936,24.0676,23.3452,23.6341,362400
2006-07-17,23.5594,23.8484,23.5046,23.7936,271600
2006-07-18,23.8135,24.1772,23.4199,23.684,343400
2006-07-19,24.5259,24.7052,23.7388,23.7388,254400
2006-07-20,24.775,25.7066,24.6604,25.2333,593400
2006-07-21,24.2668,24.491,23.8434,24.4611,430400
2006-07-24,25.0789,25.1337,24.486,24.486,391600
2006-07-25,25.3579,25.587,24.8746,25.1586,351000
2006-07-26,25.1436,25.3629,24.7351,25.2333,304800
2006-07-27,25.0839,25.4575,24.8796,25.2682,257000
2006-07-28,25.7166,25.8561,25.3678,25.3977,305000
2006-07-31,25.6568,25.866,25.5571,25.6568,303000
2006-08-01,25.3678,25.6817,25.1038,25.5821,270000
2006-08-02,25.5073,25.876,25.3828,25.4475,200800
2006-08-03,25.8511,26.0354,25.4276,25.4575,226600
2006-08-04,26.0005,26.2745,25.4177,26.0802,345600
2006-08-07,25.7016,25.9009,25.5023,25.8909,181800
2006-08-08,25.4525,25.7315,25.3479,25.6717,343400
2006-08-09,25.2632,25.6568,25.1985,25.4525,363000
2006-08-10,25.2034,25.3828,24.9593,25.034,252800
2006-08-11,25.1735,25.2483,24.8422,25.0938,194800
2006-08-14,25.1387,25.5123,25.054,25.2084,155400
2006-08-15,25.6767,25.6767,25.2283,25.3828,217600
2006-08-16,26.2048,26.2696,25.7066,25.7813,305000
2006-08-17,25.9806,26.2795,25.9069,26.155,143600
2006-08-18,25.9607,26.14,25.6169,26.1101,129400
2006-08-21,25.6418,25.9706,25.5273,25.8561,132000
2006-08-22,25.7166,25.7614,25.4924,25.5721,112600
2006-08-23,25.4127,25.8112,25.1735,25.5571,312400
2006-08-24,25.2782,25.5322,24.9693,25.4077,172200
2006-08-25,25.1187,25.4575,25.049,25.1835,171200
2006-08-28,25.5771,25.7315,25.1088,25.1187,226000
2006-08-29,25.871,26.0354,25.5073,25.6319,285200
2006-08-30,25.8561,26.2297,25.7913,25.9756,267000
2006-08-31,25.6568,25.9806,25.6119,25.881,297200
2006-09-01,25.6618,25.9358,25.607,25.7564,201200
2006-09-05,25.8112,26.0254,25.5671,25.597,172800
2006-09-06,25.3031,25.6867,25.2881,25.6867,208600
2006-09-07,24.9344,25.3629,24.9344,25.1586,273200
2006-09-08,24.9045,25.0988,24.5857,24.8099,345400
2006-09-11,24.8746,25.059,24.6305,24.785,186600
2006-09-12,25.333,25.4376,24.9244,24.9593,203600
2006-09-13,25.5273,25.6568,25.1586,25.2433,265200
2006-09-14,25.318,25.4326,24.9593,25.4326,239800
2006-09-15,24.9892,25.3878,24.9892,25.3828,505800
2006-09-18,24.9892,25.0839,24.7003,24.9045,174400
2006-09-19,24.9095,25.0938,24.3615,25.0639,225800
2006-09-20,25.2333,25.2533,24.8995,25.0839,442600
2006-09-21,25.059,25.333,24.8049,25.333,351200
2006-09-22,24.7052,25.0689,24.5259,24.9593,358600
2006-09-25,25.2034,25.2881,24.5807,24.785,337000
2006-09-26,25.7913,25.8013,25.2134,25.2582,378200
2006-09-27,25.6518,25.9806,25.5372,25.7066,398400
2006-09-28,25.881,25.9557,25.4077,25.6468,291400
2006-09-29,25.3479,25.9009,25.3479,25.7813,399600
2006-10-02,25.0191,25.4824,24.9693,25.1935,342800
2006-10-03,24.9394,25.2831,24.6056,24.9344,626800
2006-10-04,25.6667,25.7315,24.8746,24.9045,347800
2006-10-05,26.0254,26.1052,25.4924,25.587,262800
2006-10-06,26.1251,26.2795,25.8062,25.9258,251000
2006-10-09,26.3592,26.4639,25.9059,25.9657,233200
2006-10-10,26.4539,26.5286,26.1151,26.3592,201600
2006-10-11,26.7179,26.8275,26.3742,26.3891,335200
2006-10-12,27.0168,27.1862,26.6681,26.9869,391200
2006-10-13,27.3656,27.4652,26.9272,27.0517,266400
2006-10-16,27.3755,27.6595,27.251,27.4503,182600
2006-10-17,27.3706,27.4254,26.9023,27.2062,230800
2006-10-18,27.4104,27.4951,27.1663,27.4004,344000
2006-10-19,27.9534,28.2723,27.2211,27.4752,461200
2006-10-20,27.9235,28.0182,27.4054,28.0182,369400
2006-10-23,27.7791,28.2723,27.6147,27.8787,365200
2006-10-24,27.5947,27.8488,27.2859,27.6097,293000
2006-10-25,27.804,27.8538,27.3955,27.525,313600
2006-10-26,27.804,27.8986,27.4602,27.8986,218200
2006-10-27,27.4652,27.8189,27.3407,27.6495,287800
2006-10-30,27.525,27.6446,27.0517,27.251,177000
2006-10-31,27.3556,27.5898,27.2261,27.4951,243400
2006-11-01,26.8325,27.4154,26.7827,27.3905,345200
2006-11-02,27.4303,27.6246,27.1912,27.5001,470400
2006-11-03,27.804,27.8787,27.241,27.4702,537600
2006-11-06,28.073,28.1577,27.6595,27.8937,354000
2006-11-07,28.2324,28.4217,27.8986,27.8986,407600
2006-11-08,28.5413,28.621,27.8837,28.2324,400200
2006-11-09,28.1926,28.6011,27.9335,28.5662,309400
2006-11-10,28.4267,28.4715,28.1029,28.1328,247600
2006-11-13,29.0644,29.2537,28.2972,28.3719,606000
2006-11-14,29.8316,29.8615,28.9299,29.1889,661000
2006-11-15,29.9362,29.9611,29.6622,29.8665,474000
2006-11-16,29.8715,29.9163,29.6074,29.8864,252800
2006-11-17,30.1405,30.2351,29.5526,29.8715,265200
2006-11-20,30.1953,30.2601,29.9213,30.1455,393200
2006-11-21,30.1654,30.2551,29.8665,30.1953,260800
2006-11-22,30.0707,30.3597,29.8665,30.28,348400
2006-11-24,30.1156,30.3398,29.7419,29.7419,138400
2006-11-27,29.8964,30.0907,29.5975,29.9412,476000
2006-11-28,30.0658,30.0956,29.6024,29.7718,335000
2006-11-29,30.3198,30.3896,29.991,30.1704,210600
2006-11-30,30.5191,30.5241,29.8914,29.8914,372400
2006-12-01,30.1405,30.4344,29.8466,30.4344,395400
2006-12-04,30.7682,31.0123,30.1604,30.2401,487000
2006-12-05,30.6038,31.0322,30.549,30.7732,287600
2006-12-06,30.1803,30.559,30.1106,30.4892,375800
2006-12-07,30.0807,30.3796,29.9562,30.1504,284800
2006-12-08,29.9063,30.1006,29.6871,29.9562,277400
2006-12-11,29.7419,30.0309,29.6672,29.9462,421800
2006-12-12,29.5427,29.7918,29.3733,29.6921,352000
2006-12-13,29.7668,29.8814,29.5626,29.7668,254200
2006-12-14,29.9412,30.0408,29.7818,29.8216,220000
2006-12-15,29.7768,30.1006,29.7718,29.9811,458800
2006-12-18,29.179,29.8914,29.0993,29.8615,330600
2006-12-19,29.2786,29.3733,28.8153,29.0445,444600
2006-12-20,29.5028,29.6024,29.1939,29.3683,526800
2006-12-21,29.2936,29.7868,29.1441,29.6174,271800
2006-12-22,29.0196,29.3185,28.9349,29.2786,179600
2006-12-26,29.4978,29.5626,28.9199,28.9199,167000
2006-12-27,30.0907,30.0907,29.6423,29.6971,227400
2006-12-28,29.8266,30.1305,29.8266,30.0159,229200
2006-12-29,29.4131,29.9562,29.2786,29.8266,233000
2007-01-03,29.6423,30.2401,29.3783,29.6423,406200
2007-01-04,29.5725,29.7718,29.0694,29.5676,375200
2007-01-05,28.9946,29.448,28.7754,29.448,288800
2007-01-08,29.1092,29.1366,28.621,28.9,273800
2007-01-09,29.174,29.1889,28.6409,29.1591,248400
2007-01-10,29.2039,29.2139,28.9199,28.9448,166400
2007-01-11,29.8017,29.8515,29.1192,29.1989,259000
2007-01-12,30.0757,30.1106,29.7569,29.7768,145200
2007-01-16,30.4145,30.8878,30.1953,30.3647,391200
2007-01-17,30.3348,30.4643,30.1953,30.2899,282600
2007-01-18,29.9512,30.3148,29.8466,30.2451,304600
2007-01-19,30.2401,30.3896,29.6074,29.7668,275000
2007-01-22,29.8216,30.3597,29.737,30.3597,173200
2007-01-23,30.544,30.7383,29.8764,29.8914,313600
2007-01-24,30.275,30.7881,30.1305,30.7383,551400
2007-01-25,30.3348,30.4693,30.1206,30.2501,361600
2007-01-26,30.3896,30.5789,30.1405,30.4145,491200
2007-01-29,30.5689,30.7782,30.2351,30.285,548200
2007-01-30,30.5141,30.6985,30.4444,30.6636,193200
2007-01-31,30.3946,30.6735,30.1953,30.4294,378600
2007-02-01,30.6387,30.8778,30.539,30.539,359800
2007-02-02,30.6985,30.813,30.5789,30.7632,281800
2007-02-05,30.5042,30.7533,30.3896,30.6985,264400
2007-02-06,30.4593,30.7383,30.3248,30.544,363600
2007-02-07,30.3099,30.4842,30.2202,30.4743,372000
2007-02-08,30.5141,30.6486,30.0408,30.1903,245800
2007-02-09,32.8805,35.0427,32.4322,34.2157,2963200
2007-02-12,32.6862,32.9802,32.2976,32.9204,674400
2007-02-13,32.7709,32.8556,32.2877,32.492,509850
2007-02-14,33.03,33.1745,32.5766,32.761,487320
2007-02-15,32.4122,32.9254,32.3824,32.9254,411200
2007-02-16,32.5218,32.6215,32.0286,32.4072,383000
2007-02-20,32.8058,32.8158,32.3674,32.4621,405200
2007-02-21,32.6563,32.8606,32.482,32.7311,492800
2007-02-22,32.5567,32.8307,32.3724,32.5567,511600
2007-02-23,33.2741,33.4036,32.4222,32.5218,570600
2007-02-26,33.4186,33.7524,33.1396,33.4036,435592
2007-02-27,32.6813,33.015,32.472,32.5667,868600
2007-02-28,32.7759,33.0549,32.1781,32.4621,638400
2007-03-01,33.03,33.1496,32.1333,32.3824,720206
2007-03-02,32.7709,33.2293,32.7311,32.9802,838200
2007-03-05,32.6065,32.9005,32.3026,32.4521,444000
2007-03-06,32.8805,33.1545,32.756,32.9204,491000
2007-03-07,32.9503,33.1844,32.6962,32.8208,667400
2007-03-08,33.0549,33.5531,32.9652,33.2542,490000
2007-03-09,33.0997,33.4534,32.8805,33.3289,208800
2007-03-12,33.4883,33.6029,32.7361,33.0997,279800
2007-03-13,32.4471,33.4136,32.4122,33.314,550000
2007-03-14,32.756,32.8855,32.1333,32.3774,341800
2007-03-15,32.9304,33.0499,32.6414,32.8058,199600
2007-03-16,32.7012,33.0699,32.5866,32.9254,511400
2007-03-19,33.015,33.0997,32.746,32.8457,170200
2007-03-20,33.1296,33.2392,32.9403,32.9403,153800
2007-03-21,33.9666,34.0513,33.1047,33.2093,300400
2007-03-22,33.578,34.0064,33.3737,34.0064,394400
2007-03-23,34.131,34.1559,33.5282,33.7125,279800
2007-03-26,33.9965,34.0015,33.5581,34.0015,271000
2007-03-27,33.5979,33.9666,33.4684,33.9566,454400
2007-03-28,33.5581,33.7574,33.2143,33.4933,180600
2007-03-29,33.5083,34.0463,33.0948,33.7424,314800
2007-03-30,33.3438,33.7524,33.0748,33.6029,240600
2007-04-02,33.4933,33.5531,33.2193,33.4784,176600
2007-04-03,33.8271,34.1111,33.573,33.6228,283600
2007-04-04,34.0463,34.1708,33.7125,33.7524,144800
2007-04-05,34.1758,34.2555,33.9616,34.1061,144400
2007-04-09,34.0513,34.2506,33.9018,34.1509,169600
2007-04-10,34.1011,34.2804,33.9566,33.9815,199400
2007-04-11,33.8121,34.1858,33.5581,34.1758,246000
2007-04-12,34.415,34.4498,33.6328,33.6876,353600
2007-04-13,34.5495,34.8633,34.2705,34.405,169800
2007-04-16,35.0228,35.1025,34.7039,34.7487,190200
2007-04-17,34.943,35.1216,34.7338,35.0775,212200
2007-04-18,34.3751,34.8783,34.2755,34.7737,290400
2007-04-19,37.1849,37.8475,35.9793,36.5422,1685298
2007-04-20,37.424,38.3507,36.9707,37.6084,770000
2007-04-23,37.3692,37.703,36.6767,36.871,602200
2007-04-24,37.6382,37.6582,36.9258,37.5386,327200
2007-04-25,37.8624,38.0717,37.4539,37.9372,359800
2007-04-26,37.7578,37.967,37.429,37.8126,271800
2007-04-27,37.7628,38.1514,37.3493,37.6183,298400
2007-04-30,36.4924,37.6632,36.4326,37.6632,404800
2007-05-01,37.0952,37.3493,36.4077,36.6568,350400
2007-05-02,37.2198,37.6382,36.6767,37.2198,435000
2007-05-03,37.1949,37.3643,36.896,37.2148,210200
2007-05-04,37.3593,37.3593,36.9607,37.1899,358000
2007-05-07,37.3493,37.5835,37.1351,37.3643,391000
2007-05-08,37.3543,37.3643,36.7016,37.0902,349000
2007-05-09,37.5037,37.5835,36.9806,37.165,268800
2007-05-10,35.8996,36.9856,35.8597,36.9856,545474
2007-05-11,37.0753,37.155,36.059,36.0789,439814
2007-05-14,36.597,37.3344,36.4575,37.1251,349000
2007-05-15,36.2882,37.0952,36.1088,36.6369,513385
2007-05-16,36.5173,36.6667,36.0191,36.5074,326600
2007-05-17,36.5871,36.9657,36.1487,36.4974,506880
2007-05-18,36.6767,36.8661,36.4077,36.7465,316300
2007-05-21,36.7066,37.2048,36.4675,36.5671,349100
2007-05-22,37.2248,37.3643,36.6668,36.9557,283800
2007-05-23,37.1351,37.6632,37.0454,37.4739,458900
2007-05-24,36.7266,37.2646,36.4476,37.1749,425980
2007-05-25,36.9657,37.4739,36.9258,36.9258,254900
2007-05-29,37.145,37.4141,36.876,37.0354,234400
2007-05-30,37.5237,37.6432,36.9557,37.2248,255600
2007-05-31,37.424,38.1713,37.3742,37.7429,374200
2007-06-01,37.9123,38.0119,37.6133,37.6731,705100
2007-06-04,37.9123,38.1614,37.4539,37.8226,228000
2007-06-05,37.7528,37.972,37.3742,37.6731,233400
2007-06-06,37.3144,37.7528,37.1052,37.6034,259700
2007-06-07,36.6668,37.5237,36.5572,37.2048,281700
2007-06-08,36.8461,36.9856,36.3778,36.5173,187200
2007-06-11,36.607,37.3742,35.9693,36.6668,232900
2007-06-12,35.8498,36.607,35.6007,36.3181,327900
2007-06-13,36.328,36.607,35.7302,35.9693,239800
2007-06-14,37.0653,37.3045,36.3679,36.4874,256900
2007-06-15,37.7827,38.0318,37.434,37.9621,612500
2007-06-18,36.9557,37.8624,36.9258,37.8027,214000
2007-06-19,36.9258,36.9956,36.0889,36.7365,283800
2007-06-20,35.9693,37.0952,35.8697,37.0952,335000
2007-06-21,36.069,36.1586,35.3516,35.79,211800
2007-06-22,35.6804,36.0092,35.3516,36.0092,555300
2007-06-25,35.232,35.79,34.9331,35.5608,342100
2007-06-26,35.3316,35.7202,34.8932,35.4811,413700
2007-06-27,35.8099,35.8697,34.8733,35.1224,267000
2007-06-28,35.9892,36.4277,35.79,35.9693,201100
2007-06-29,35.4313,36.6469,35.3017,36.2383,297800
2007-07-02,36.4675,36.7776,35.6903,35.7302,262100
2007-07-03,36.6568,36.8162,36.4575,36.5771,81800
2007-07-05,36.7963,36.8661,36.1686,36.7565,238800
2007-07-06,36.876,36.9956,36.5472,36.7365,155900
2007-07-09,36.6469,37.0753,36.3978,37.0753,211500
2007-07-10,36.2583,36.6668,36.2184,36.4775,307100
2007-07-11,36.7266,36.896,36.2284,36.2682,229000
2007-07-12,37.4938,37.4938,36.6668,37.0653,319200
2007-07-13,37.7728,37.7728,37.0354,37.3344,274800
2007-07-16,37.424,37.8724,37.1251,37.5934,491200
2007-07-17,38.1414,38.4503,37.5835,37.5835,438600
2007-07-18,39.0481,39.2773,37.444,37.8027,613700
2007-07-19,37.7628,38.0119,36.4476,37.1152,1641300
2007-07-20,37.8126,38.0119,37.4041,37.6831,743600
2007-07-23,37.9322,38.2012,37.8624,37.9621,519600
2007-07-24,36.9757,37.8126,36.7863,37.4639,386300
2007-07-25,36.4575,37.3443,35.9295,37.1749,448800
2007-07-26,35.78,36.5472,35.222,35.8697,691800
2007-07-27,35.38,35.92,34.99,35.62,553500
2007-07-30,36.07,36.22,35.0,35.43,521200
2007-07-31,36.4,37.37,35.94,36.37,672200
2007-08-01,36.98,37.2,35.79,36.25,800300
2007-08-02,37.04,37.32,36.66,37.09,511700
2007-08-03,36.18,37.16,36.09,36.88,654900
2007-08-06,36.61,36.67,34.95,36.28,600100
2007-08-07,36.34,36.75,35.5,36.33,585400
2007-08-08,38.91,39.49,36.73,36.8,967000
2007-08-09,37.97,40.03,37.73,38.15,783000
2007-08-10,38.84,39.53,37.06,37.45,585900
2007-08-13,38.27,39.5,37.55,39.4,432600
2007-08-14,37.3,38.51,37.26,38.27,181600
2007-08-15,35.82,37.79,35.8,37.15,372000
2007-08-16,37.49,37.66,35.43,35.69,644300
2007-08-17,37.58,40.09,36.66,39.9,944000
2007-08-20,36.67,37.83,36.19,37.62,437200
2007-08-21,36.38,36.73,36.01,36.5,471900
2007-08-22,36.55,37.23,36.23,36.75,466200
2007-08-23,36.04,37.02,35.75,36.84,393800
2007-08-24,36.6,36.6,35.8,35.99,267900
2007-08-27,35.73,36.42,35.62,36.42,287300
2007-08-28,34.9,35.62,34.84,35.5,256500
2007-08-29,35.72,35.93,34.94,35.12,251400
2007-08-30,36.07,36.21,35.22,35.66,310800
2007-08-31,36.33,36.66,36.0,36.53,192500
2007-09-04,36.04,36.65,36.0,36.1,330700
2007-09-05,35.48,36.02,35.31,35.9,333000
2007-09-06,34.7,35.66,34.66,35.52,551100
2007-09-07,34.2,34.65,33.922,34.27,535500
2007-09-10,34.12,34.88,33.55,34.45,642600
2007-09-11,34.76,35.09,34.16,34.29,453400
2007-09-12,34.17,34.82,34.07,34.63,397100
2007-09-13,33.91,34.5,33.91,34.4,262800
2007-09-14,34.11,34.4,33.37,33.75,325200
2007-09-17,33.78,34.19,33.74,33.96,638100
2007-09-18,34.92,35.08,33.7,33.89,378100
2007-09-19,35.99,36.31,35.1,35.34,389500
2007-09-20,36.02,36.11,35.735,35.9,322000
2007-09-21,36.62,37.02,36.3,36.42,571900
2007-09-24,36.55,36.77,36.23,36.54,262600
2007-09-25,36.46,36.77,35.95,36.3,169200
2007-09-26,37.31,37.42,36.44,36.66,241500
2007-09-27,37.57,37.61,37.2,37.41,138000
2007-09-28,37.87,38.22,37.37,37.57,480000
2007-10-01,38.33,38.87,37.75,37.79,326600
2007-10-02,39.26,39.35,38.44,38.44,252800
2007-10-03,39.02,39.34,38.68,39.03,197200
2007-10-04,38.99,39.26,38.79,39.15,161700
2007-10-05,39.93,40.11,39.26,39.47,277700
2007-10-08,39.49,40.02,39.38,39.8,167400
2007-10-09,39.78,40.11,39.06,39.52,206800
2007-10-10,38.79,39.5,38.5,39.5,289600
2007-10-11,38.57,39.69,38.39,38.87,254600
2007-10-12,39.59,39.6,38.39,38.51,196800
2007-10-15,39.01,39.55,38.53,39.54,290500
2007-10-16,39.15,39.44,38.87,39.02,267100
2007-10-17,39.15,39.86,38.54,39.79,394700
2007-10-18,41.87,42.47,40.6,40.6,635500
2007-10-19,41.0,42.07,40.97,41.77,770900
2007-10-22,44.16,44.28,40.64,40.64,1026400
2007-10-23,44.44,44.73,43.4,44.0,768400
2007-10-24,43.19,44.29,42.31,43.99,532000
2007-10-25,43.51,43.69,42.79,43.29,405300
2007-10-26,44.39,44.5,43.59,44.0,210200
2007-10-29,43.34,44.54,42.31,44.3,395400
2007-10-30,43.36,44.3,43.07,43.16,453000
2007-10-31,44.7,44.75,42.75,43.6,535600
2007-11-01,42.82,44.45,42.7,44.23,575300
2007-11-02,42.96,43.51,42.09,43.27,232200
2007-11-05,43.34,43.69,41.7,42.3,358400
2007-11-06,43.93,44.0,42.58,43.5,244500
2007-11-07,41.74,43.5,41.64,43.5,389100
2007-11-08,42.17,42.37,41.45,42.16,466469
2007-11-09,41.62,42.15,41.0,41.51,393556
2007-11-12,41.83,42.65,41.2,41.52,390300
2007-11-13,42.9,43.13,41.85,42.31,332025
2007-11-14,42.32,43.26,41.69,43.26,354400
2007-11-15,41.52,42.04,40.8948,42.04,365200
2007-11-16,41.44,42.22,40.93,41.6,393200
2007-11-19,40.82,41.37,40.36,41.0,354530
2007-11-20,40.96,41.44,39.83,41.12,400500
2007-11-21,40.99,42.13,40.52,40.64,408635
2007-11-23,42.0,42.46,41.09,41.4,123200
2007-11-26,40.49,42.86,40.49,41.97,368512
2007-11-27,40.89,41.59,40.42,40.67,462000
2007-11-28,43.46,43.51,41.4,42.0,646500
2007-11-29,42.32,43.35,42.12,43.1,451300
2007-11-30,42.21,43.24,41.86,42.84,473208
2007-12-03,41.42,42.34,41.35,42.06,303300
2007-12-04,40.87,41.44,40.61,41.11,243100
2007-12-05,42.15,42.26,41.31,41.45,210800
2007-12-06,43.34,43.37,42.15,42.15,254917
2007-12-07,43.45,43.7699,43.04,43.63,169500
2007-12-10,43.56,43.75,43.02,43.46,251900
2007-12-11,42.44,44.01,42.25,43.87,311550
2007-12-12,43.01,44.0,42.46,43.55,264120
2007-12-13,42.47,43.0,41.72,42.65,374500
2007-12-14,41.72,42.53,41.61,42.0,272600
2007-12-17,40.39,41.43,40.37,41.39,365200
2007-12-18,40.82,41.03,40.05,40.81,485700
2007-12-19,39.88,41.09,39.69,40.88,506900
2007-12-20,40.46,40.6,39.71,40.25,444900
2007-12-21,42.41,42.74,41.03,41.18,824900
2007-12-24,43.4,43.51,42.41,42.68,141500
2007-12-26,43.21,43.49,42.56,43.4,282900
2007-12-27,41.62,43.19,41.6,42.71,201738
2007-12-28,41.69,42.44,41.34,41.34,198400
2007-12-31,40.91,41.49,40.62,41.41,226500
2008-01-02,39.96,41.02,39.63,40.68,317100
2008-01-03,39.42,40.37,39.29,40.11,436700
2008-01-04,40.41,42.72,39.0,39.0,943432
2008-01-07,39.701,40.7074,39.3023,40.4683,598600
2008-01-08,38.3756,40.6277,38.3357,39.8604,486000
2008-01-09,39.5913,39.6711,38.1165,38.3656,437900
2008-01-10,39.5515,40.1892,38.9835,39.2127,569800
2008-01-11,37.8674,40.0099,37.8674,39.3123,529200
2008-01-14,38.8838,39.2426,37.9471,38.1265,259900
2008-01-15,37.7378,38.5649,37.5784,38.4055,295130
2008-01-16,37.389,38.2759,36.7413,37.6382,431449
2008-01-17,36.2231,37.8674,36.2231,37.4488,446060
2008-01-18,34.9875,36.7015,33.0144,34.7882,1646264
2008-01-22,34.6188,35.3761,33.1439,33.5326,666462
2008-01-23,36.2231,36.2829,32.7553,34.0707,839637
2008-01-24,35.4259,36.5022,35.0672,36.3925,587937
2008-01-25,36.2331,36.6716,35.4259,35.8544,628100
2008-01-28,37.1499,37.389,35.5056,36.2929,506014
2008-01-29,37.33,37.6,36.57,37.43,483900
2008-01-30,36.01,37.79,36.0,36.99,549828
2008-01-31,37.72,38.17,35.23,35.23,593200
2008-02-01,38.06,38.72,37.46,37.82,405100
