Price,Close
Ticker,ATR
Date,
2004-01-15,19.2858
2004-01-16,18.9142
2004-01-20,19.081
2004-01-21,19.5193
2004-01-22,19.1524
2004-01-23,18.9714
2004-01-26,19.1096
2004-01-27,19.1524
2004-01-28,19.1619
2004-01-29,19.0619
2004-01-30,19.0905
2004-02-02,19.1245
2004-02-03,19.1723
2004-02-04,18.981
2004-02-05,18.8137
2004-02-06,19.134
2004-02-09,19.2679
2004-02-10,19.5213
2004-02-11,19.7938
2004-02-12,19.6504
2004-02-13,19.3779
2004-02-17,19.5835
2004-02-18,19.4305
2004-02-19,19.244
2004-02-20,19.2679
2004-02-23,19.4257
2004-02-24,19.1292
2004-02-25,19.5069
2004-02-26,19.3635
2004-02-27,19.3396
2004-03-01,19.5691
2004-03-02,19.2679
2004-03-03,19.244
2004-03-04,19.3109
2004-03-05,19.3396
2004-03-08,19.4161
2004-03-09,19.2918
2004-03-10,18.7611
2004-03-11,18.3882
2004-03-12,18.3595
2004-03-15,18.1921
2004-03-16,18.1682
2004-03-17,18.5125
2004-03-18,18.3834
2004-03-19,18.3547
2004-03-22,18.1778
2004-03-23,17.977
2004-03-24,17.8718
2004-03-25,17.9531
2004-03-26,17.9865
2004-03-29,18.216
2004-03-30,18.4312
2004-03-31,18.3595
2004-04-01,18.5746
2004-04-02,18.7324
2004-04-05,18.9619
2004-04-06,18.9141
2004-04-07,18.8137
2004-04-08,18.8472
2004-04-12,19.1723
2004-04-13,18.7276
2004-04-14,18.6942
2004-04-15,18.8615
2004-04-16,19.1914
2004-04-19,19.4448
2004-04-20,19.2679
2004-04-21,19.4113
2004-04-22,19.8273
2004-04-23,19.703
2004-04-26,19.5787
2004-04-27,19.1245
2004-04-28,19.0433
2004-04-29,18.7123
2004-04-30,18.8562
2004-05-03,18.8658
2004-05-04,19.2976
2004-05-05,19.1441
2004-05-06,19.0961
2004-05-07,18.8658
2004-05-10,18.2229
2004-05-11,18.3908
2004-05-12,18.7075
2004-05-13,18.7219
2004-05-14,18.4484
2004-05-17,18.1509
2004-05-18,18.2708
2004-05-19,18.5203
2004-05-20,18.6163
2004-05-21,18.8322
2004-05-24,19.0721
2004-05-25,19.312
2004-05-26,19.312
2004-05-27,19.5999
2004-05-28,19.5039
2004-06-01,19.4032
2004-06-02,19.432
2004-06-03,19.2496
2004-06-04,19.5663
2004-06-07,19.6383
2004-06-08,19.6191
2004-06-09,19.9406
2004-06-10,19.6095
2004-06-14,19.9502
2004-06-15,19.7199
2004-06-16,20.1805
2004-06-17,20.3724
2004-06-18,20.6603
2004-06-21,20.7754
2004-06-22,20.9338
2004-06-23,21.0345
2004-06-24,20.9865
2004-06-25,20.4923
2004-06-28,20.8042
2004-06-29,21.0345
2004-06-30,20.9625
2004-07-01,20.5691
2004-07-02,20.6843
2004-07-06,20.5403
2004-07-07,20.5499
2004-07-08,20.0797
2004-07-09,20.2428
2004-07-12,20.3532
2004-07-13,20.454
2004-07-14,20.4923
2004-07-15,20.1853
2004-07-16,20.3244
2004-07-19,20.9194
2004-07-20,21.4663
2004-07-21,20.9961
2004-07-22,20.7514
2004-07-23,20.496
2004-07-26,20.2738
2004-07-27,20.5202
2004-07-28,20.3124
2004-07-29,20.3463
2004-07-30,20.4429
2004-08-02,20.7715
2004-08-03,20.4816
2004-08-04,20.8633
2004-08-05,20.3656
2004-08-06,19.7858
2004-08-09,19.9211
2004-08-10,20.5105
2004-08-11,20.5589
2004-08-12,20.0709
2004-08-13,20.2496
2004-08-16,20.6893
2004-08-17,20.8294
2004-08-18,21.1821
2004-08-19,20.8874
2004-08-20,21.4431
2004-08-23,21.3851
2004-08-24,21.5977
2004-08-25,22.0664
2004-08-26,21.9359
2004-08-27,21.9649
2004-08-30,21.4576
2004-08-31,21.9552
2004-09-01,21.7668
2004-09-02,22.5882
2004-09-03,22.1775
2004-09-07,22.6365
2004-09-08,21.762
2004-09-09,22.4626
2004-09-10,22.0809
2004-09-13,22.0664
2004-09-14,22.0615
2004-09-15,22.0277
2004-09-16,22.3031
2004-09-17,21.9987
2004-09-20,22.0084
2004-09-21,22.4819
2004-09-22,21.8876
2004-09-23,21.646
2004-09-24,21.6605
2004-09-27,21.3464
2004-09-28,21.0855
2004-09-29,21.2643
2004-09-30,21.245
2004-10-01,22.0325
2004-10-04,21.8731
2004-10-05,21.8296
2004-10-06,22.3756
2004-10-07,21.6267
2004-10-08,21.7426
2004-10-11,21.7668
2004-10-12,21.791
2004-10-13,21.704
2004-10-14,21.6218
2004-10-15,22.2258
2004-10-18,22.2258
2004-10-19,22.1388
2004-10-20,22.2065
2004-10-21,22.8636
2004-10-22,22.2306
2004-10-25,22.6075
2004-10-26,23.0408
2004-10-27,22.856
2004-10-28,23.2159
2004-10-29,22.8171
2004-11-01,23.5854
2004-11-02,22.8122
2004-11-03,23.7702
2004-11-04,24.2906
2004-11-05,24.1349
2004-11-08,23.5757
2004-11-09,23.7459
2004-11-10,23.8772
2004-11-11,24.3343
2004-11-12,24.3149
2004-11-15,24.4219
2004-11-16,24.1641
2004-11-17,24.6553
2004-11-18,24.5483
2004-11-19,24.1933
2004-11-22,24.2662
2004-11-23,24.5532
2004-11-24,24.8741
2004-11-26,24.8547
2004-11-29,25.5355
2004-11-30,25.5549
2004-12-01,26.1628
2004-12-02,25.9196
2004-12-03,25.5355
2004-12-06,25.2194
2004-12-07,24.5483
2004-12-08,24.9082
2004-12-09,25.0978
2004-12-10,25.1902
2004-12-13,25.8808
2004-12-14,26.0169
2004-12-15,26.1045
2004-12-16,25.7738
2004-12-17,25.5306
2004-12-20,25.5014
2004-12-21,26.0655
2004-12-22,26.4692
2004-12-23,26.1968
2004-12-27,25.6473
2004-12-28,26.2844
2004-12-29,25.9537
2004-12-30,26.0023
2004-12-31,25.6668
2005-01-03,25.7495
2005-01-04,24.9714
2005-01-05,24.3149
2005-01-06,24.5629
2005-01-07,23.8286
2005-01-10,24.1252
2005-01-11,23.9599
2005-01-12,23.8529
2005-01-13,23.4152
2005-01-14,23.8237
2005-01-18,24.1593
2005-01-19,23.5854
2005-01-20,23.5903
2005-01-21,23.6341
2005-01-24,23.2304
2005-01-25,23.2547
2005-01-26,23.5319
2005-01-27,23.3763
2005-01-28,23.1234
2005-01-31,23.7304
2005-02-01,23.8136
2005-02-02,24.0779
2005-02-03,24.2198
2005-02-04,24.5428
2005-02-07,24.4107
2005-02-08,24.5232
2005-02-09,24.0534
2005-02-10,24.0828
2005-02-11,24.3177
2005-02-14,24.1268
2005-02-15,24.1366
2005-02-16,24.3128
2005-02-17,24.1562
2005-02-18,24.4205
2005-02-22,23.98
2005-02-23,24.3177
2005-02-24,24.8364
2005-02-25,25.4041
2005-02-28,25.2622
2005-03-01,25.4482
2005-03-02,25.2916
2005-03-03,25.6586
2005-03-04,25.8495
2005-03-07,25.5411
2005-03-08,25.5754
2005-03-09,25.4922
2005-03-10,24.9686
2005-03-11,25.2279
2005-03-14,25.4531
2005-03-15,25.1839
2005-03-16,25.0567
2005-03-17,24.9979
2005-03-18,25.042
2005-03-21,25.0713
2005-03-22,24.67
2005-03-23,24.3617
2005-03-24,24.4156
2005-03-28,24.6211
2005-03-29,24.8511
2005-03-30,25.7271
2005-03-31,25.4384
2005-04-01,25.9376
2005-04-04,26.0452
2005-04-05,26.1431
2005-04-06,26.4367
2005-04-07,26.5346
2005-04-08,25.8201
2005-04-11,25.7956
2005-04-12,25.9278
2005-04-13,25.1986
2005-04-14,24.4743
2005-04-15,23.9751
2005-04-18,24.67
2005-04-19,24.6358
2005-04-20,23.9555
2005-04-21,24.4449
2005-04-22,24.1513
2005-04-25,24.3324
2005-04-26,23.4906
2005-04-27,23.8746
2005-04-28,23.3575
2005-04-29,23.7515
2005-05-02,23.8352
2005-05-03,23.9091
2005-05-04,24.7955
2005-05-05,24.633
2005-05-06,25.1156
2005-05-09,25.2782
2005-05-10,24.7906
2005-05-11,24.8349
2005-05-12,24.3868
2005-05-13,24.2932
2005-05-16,24.5247
2005-05-17,25.1255
2005-05-18,25.677
2005-05-19,25.2683
2005-05-20,25.0762
2005-05-23,25.2043
2005-05-24,25.4308
2005-05-25,24.7069
2005-05-26,25.1452
2005-05-27,25.1944
2005-05-31,24.6232
2005-06-01,24.8202
2005-06-02,24.6527
2005-06-03,24.3031
2005-06-06,24.4705
2005-06-07,24.1455
2005-06-08,23.9239
2005-06-09,24.1652
2005-06-10,24.1406
2005-06-13,24.1603
2005-06-14,24.5394
2005-06-15,24.5
2005-06-16,24.8398
2005-06-17,24.5247
2005-06-20,24.1701
2005-06-21,24.4607
2005-06-22,24.3917
2005-06-23,24.1307
2005-06-24,24.3966
2005-06-27,24.2538
2005-06-28,24.633
2005-06-29,24.9383
2005-06-30,25.0171
2005-07-01,25.1156
2005-07-05,25.0762
2005-07-06,24.6379
2005-07-07,24.6429
2005-07-08,25.2683
2005-07-11,25.5884
2005-07-12,25.3766
2005-07-13,25.091
2005-07-14,25.027
2005-07-15,24.7266
2005-07-18,24.4656
2005-07-19,24.7463
2005-07-20,24.958
2005-07-21,24.7118
2005-07-22,24.8005
2005-07-25,24.6232
2005-07-26,24.766
2005-07-27,24.6626
2005-07-28,25.0073
2005-07-29,24.6464
2005-08-01,24.7156
2005-08-02,24.9331
2005-08-03,24.9727
2005-08-04,24.943
2005-08-05,24.7205
2005-08-08,24.7008
2005-08-09,24.77
2005-08-10,24.9183
2005-08-11,25.032
2005-08-12,24.7848
2005-08-15,24.8787
2005-08-16,24.3992
2005-08-17,24.1618
2005-08-18,24.2261
2005-08-19,24.2904
2005-08-22,24.3102
2005-08-23,24.1273
2005-08-24,24.0481
2005-08-25,24.0728
2005-08-26,23.8405
2005-08-29,24.1767
2005-08-30,24.1173
2005-08-31,24.587
2005-09-01,24.6217
2005-09-02,24.6266
2005-09-06,24.8095
2005-09-07,24.7304
2005-09-08,24.6909
2005-09-09,24.5178
2005-09-12,24.7551
2005-09-13,24.2409
2005-09-14,23.796
2005-09-15,23.8701
2005-09-16,24.0284
2005-09-19,24.0284
2005-09-20,23.9937
2005-09-21,23.5587
2005-09-22,23.5092
2005-09-23,23.796
2005-09-26,25.0172
2005-09-27,24.676
2005-09-28,24.5673
2005-09-29,24.6118
2005-09-30,24.6266
2005-10-03,24.9677
2005-10-04,24.943
2005-10-05,24.4437
2005-10-06,24.5475
2005-10-07,24.681
2005-10-10,24.4239
2005-10-11,24.7008
2005-10-12,24.7897
2005-10-13,25.1853
2005-10-14,25.6846
2005-10-17,25.7539
2005-10-18,25.8082
2005-10-19,26.1543
2005-10-20,23.8158
2005-10-21,23.9789
2005-10-24,24.0531
2005-10-25,24.2904
2005-10-26,24.681
2005-10-27,24.6266
2005-10-28,25.0073
2005-10-31,25.3795
2005-11-01,25.4688
2005-11-02,25.5879
2005-11-03,26.0446
2005-11-04,25.9007
2005-11-07,26.2332
2005-11-08,26.1091
2005-11-09,25.8113
2005-11-10,26.2829
2005-11-11,26.2581
2005-11-14,26.3027
2005-11-15,26.1687
2005-11-16,26.2183
2005-11-17,26.4864
2005-11-18,26.6154
2005-11-21,26.6849
2005-11-22,26.5112
2005-11-23,26.5162
2005-11-25,26.814
2005-11-28,26.1886
2005-11-29,27.092
2005-11-30,27.226
2005-12-01,27.0771
2005-12-02,27.1515
2005-12-05,27.3004
2005-12-06,27.1416
2005-12-07,27.0026
2005-12-08,26.9282
2005-12-09,27.0473
2005-12-12,27.2458
2005-12-13,26.9927
2005-12-14,26.948
2005-12-15,26.5757
2005-12-16,26.1091
2005-12-19,26.1091
2005-12-20,26.1637
2005-12-21,26.0843
2005-12-22,26.0099
2005-12-23,26.3424
2005-12-27,26.2332
2005-12-28,26.3325
2005-12-29,26.1886
2005-12-30,25.9106
2006-01-03,26.0595
2006-01-04,26.5658
2006-01-05,26.541
2006-01-06,26.6005
2006-01-09,26.7991
2006-01-10,26.9877
2006-01-11,27.0175
2006-01-12,26.9827
2006-01-13,26.8785
2006-01-17,26.7097
2006-01-18,26.814
2006-01-19,26.8835
2006-01-20,27.3302
2006-01-23,26.8338
2006-01-24,27.1912
2006-01-25,27.3004
2006-01-26,27.4742
2006-01-27,27.1912
2006-01-30,27.251
2006-01-31,28.1178
2006-02-01,28.073
2006-02-02,27.9584
2006-02-03,27.5798
2006-02-06,27.8737
2006-02-07,27.1563
2006-02-08,27.3556
2006-02-09,27.4104
2006-02-10,28.3769
2006-02-13,27.1115
2006-02-14,27.3407
2006-02-15,27.3407
2006-02-16,27.0268
2006-02-17,27.0368
2006-02-21,26.8773
2006-02-22,26.8624
2006-02-23,26.7179
2006-02-24,26.7927
2006-02-27,26.5585
2006-02-28,26.429
2006-03-01,26.8225
2006-03-02,26.8574
2006-03-03,26.6133
2006-03-06,26.4041
2006-03-07,26.5485
2006-03-08,26.698
2006-03-09,26.693
2006-03-10,27.0517
2006-03-13,27.0069
2006-03-14,27.0467
2006-03-15,27.1015
2006-03-16,27.251
2006-03-17,27.4004
2006-03-20,27.52
2006-03-21,27.261
2006-03-22,27.3207
2006-03-23,27.246
2006-03-24,27.1314
2006-03-27,27.0019
2006-03-28,26.698
2006-03-29,27.241
2006-03-30,27.3257
2006-03-31,27.525
2006-04-03,26.977
2006-04-04,27.4054
2006-04-05,26.688
2006-04-06,26.6831
2006-04-07,26.693
2006-04-10,26.1649
2006-04-11,26.14
2006-04-12,26.2845
2006-04-13,26.2795
2006-04-17,26.2994
2006-04-18,26.4838
2006-04-19,26.7727
2006-04-20,26.6283
2006-04-21,26.0553
2006-04-24,25.8112
2006-04-25,26.145
2006-04-26,26.0304
2006-04-27,26.0304
2006-04-28,26.1101
2006-05-01,26.1749
2006-05-02,26.2945
2006-05-03,26.429
2006-05-04,26.6133
2006-05-05,26.8873
2006-05-08,27.0816
2006-05-09,26.9919
2006-05-10,26.8425
2006-05-11,26.5087
2006-05-12,26.3592
2006-05-15,26.2546
2006-05-16,26.2397
2006-05-17,26.0454
2006-05-18,25.9059
2006-05-19,26.0055
2006-05-22,26.0504
2006-05-23,25.7116
2006-05-24,25.7564
2006-05-25,25.7116
2006-05-26,25.7714
2006-05-30,25.6917
2006-05-31,26.2048
2006-06-01,26.1799
2006-06-02,26.2197
2006-06-05,26.2098
2006-06-06,26.1151
2006-06-07,26.2297
2006-06-08,25.9158
2006-06-09,25.8062
2006-06-12,25.587
2006-06-13,25.1337
2006-06-14,25.0988
2006-06-15,25.328
2006-06-16,25.2483
2006-06-19,24.9593
2006-06-20,24.9942
2006-06-21,25.1885
2006-06-22,24.9195
2006-06-23,25.1636
2006-06-26,25.5273
2006-06-27,25.2831
2006-06-28,25.4575
2006-06-29,26.0952
2006-06-30,24.7152
2006-07-03,25.3579
2006-07-05,25.1436
2006-07-06,25.1486
2006-07-07,24.5359
2006-07-10,24.9892
2006-07-11,25.1138
2006-07-12,24.2967
2006-07-13,23.7238
2006-07-14,23.7936
2006-07-17,23.5594
2006-07-18,23.8135
2006-07-19,24.5259
2006-07-20,24.775
2006-07-21,24.2668
2006-07-24,25.0789
2006-07-25,25.3579
2006-07-26,25.1436
2006-07-27,25.0839
2006-07-28,25.7166
2006-07-31,25.6568
2006-08-01,25.3678
2006-08-02,25.5073
2006-08-03,25.8511
2006-08-04,26.0005
2006-08-07,25.7016
2006-08-08,25.4525
2006-08-09,25.2632
2006-08-10,25.2034
2006-08-11,25.1735
2006-08-14,25.1387
2006-08-15,25.6767
2006-08-16,26.2048
2006-08-17,25.9806
2006-08-18,25.9607
2006-08-21,25.6418
2006-08-22,25.7166
2006-08-23,25.4127
2006-08-24,25.2782
2006-08-25,25.1187
2006-08-28,25.5771
2006-08-29,25.871
2006-08-30,25.8561
2006-08-31,25.6568
2006-09-01,25.6618
2006-09-05,25.8112
2006-09-06,25.3031
2006-09-07,24.9344
2006-09-08,24.9045
2006-09-11,24.8746
2006-09-12,25.333
2006-09-13,25.5273
2006-09-14,25.318
2006-09-15,24.9892
2006-09-18,24.9892
2006-09-19,24.9095
2006-09-20,25.2333
2006-09-21,25.059
2006-09-22,24.7052
2006-09-25,25.2034
2006-09-26,25.7913
2006-09-27,25.6518
2006-09-28,25.881
2006-09-29,25.3479
2006-10-02,25.0191
2006-10-03,24.9394
2006-10-04,25.6667
2006-10-05,26.0254
2006-10-06,26.1251
2006-10-09,26.3592
2006-10-10,26.4539
2006-10-11,26.7179
2006-10-12,27.0168
2006-10-13,27.3656
2006-10-16,27.3755
2006-10-17,27.3706
2006-10-18,27.4104
2006-10-19,27.9534
2006-10-20,27.9235
2006-10-23,27.7791
2006-10-24,27.5947
2006-10-25,27.804
2006-10-26,27.804
2006-10-27,27.4652
2006-10-30,27.525
2006-10-31,27.3556
2006-11-01,26.8325
2006-11-02,27.4303
2006-11-03,27.804
2006-11-06,28.073
2006-11-07,28.2324
2006-11-08,28.5413
2006-11-09,28.1926
2006-11-10,28.4267
2006-11-13,29.0644
2006-11-14,29.8316
2006-11-15,29.9362
2006-11-16,29.8715
2006-11-17,30.1405
2006-11-20,30.1953
2006-11-21,30.1654
2006-11-22,30.0707
2006-11-24,30.1156
2006-11-27,29.8964
2006-11-28,30.0658
2006-11-29,30.3198
2006-11-30,30.5191
2006-12-01,30.1405
2006-12-04,30.7682
2006-12-05,30.6038
2006-12-06,30.1803
2006-12-07,30.0807
2006-12-08,29.9063
2006-12-11,29.7419
2006-12-12,29.5427
2006-12-13,29.7668
2006-12-14,29.9412
2006-12-15,29.7768
2006-12-18,29.179
2006-12-19,29.2786
2006-12-20,29.5028
2006-12-21,29.2936
2006-12-22,29.0196
2006-12-26,29.4978
2006-12-27,30.0907
2006-12-28,29.8266
2006-12-29,29.4131
2007-01-03,29.6423
2007-01-04,29.5725
2007-01-05,28.9946
2007-01-08,29.1092
2007-01-09,29.174
2007-01-10,29.2039
2007-01-11,29.8017
2007-01-12,30.0757
2007-01-16,30.4145
2007-01-17,30.3348
2007-01-18,29.9512
2007-01-19,30.2401
2007-01-22,29.8216
2007-01-23,30.544
2007-01-24,30.275
2007-01-25,30.3348
2007-01-26,30.3896
2007-01-29,30.5689
2007-01-30,30.5141
2007-01-31,30.3946
2007-02-01,30.6387
2007-02-02,30.6985
2007-02-05,30.5042
2007-02-06,30.4593
2007-02-07,30.3099
2007-02-08,30.5141
2007-02-09,32.8805
2007-02-12,32.6862
2007-02-13,32.7709
2007-02-14,33.03
2007-02-15,32.4122
2007-02-16,32.5218
2007-02-20,32.8058
2007-02-21,32.6563
2007-02-22,32.5567
2007-02-23,33.2741
2007-02-26,33.4186
2007-02-27,32.6813
2007-02-28,32.7759
2007-03-01,33.03
2007-03-02,32.7709
2007-03-05,32.6065
2007-03-06,32.8805
2007-03-07,32.9503
2007-03-08,33.0549
2007-03-09,33.0997
2007-03-12,33.4883
2007-03-13,32.4471
2007-03-14,32.756
2007-03-15,32.9304
2007-03-16,32.7012
2007-03-19,33.015
2007-03-20,33.1296
2007-03-21,33.9666
2007-03-22,33.578
2007-03-23,34.131
2007-03-26,33.9965
2007-03-27,33.5979
2007-03-28,33.5581
2007-03-29,33.5083
2007-03-30,33.3438
2007-04-02,33.4933
2007-04-03,33.8271
2007-04-04,34.0463
2007-04-05,34.1758
2007-04-09,34.0513
2007-04-10,34.1011
2007-04-11,33.8121
2007-04-12,34.415
2007-04-13,34.5495
2007-04-16,35.0228
2007-04-17,34.943
2007-04-18,34.3751
2007-04-19,37.1849
2007-04-20,37.424
2007-04-23,37.3692
2007-04-24,37.6382
2007-04-25,37.8624
2007-04-26,37.7578
2007-04-27,37.7628
2007-04-30,36.4924
2007-05-01,37.0952
2007-05-02,37.2198
2007-05-03,37.1949
2007-05-04,37.3593
2007-05-07,37.3493
2007-05-08,37.3543
2007-05-09,37.5037
2007-05-10,35.8996
2007-05-11,37.0753
2007-05-14,36.597
2007-05-15,36.2882
2007-05-16,36.5173
2007-05-17,36.5871
2007-05-18,36.6767
2007-05-21,36.7066
2007-05-22,37.2248
2007-05-23,37.1351
2007-05-24,36.7266
2007-05-25,36.9657
2007-05-29,37.145
2007-05-30,37.5237
2007-05-31,37.424
2007-06-01,37.9123
2007-06-04,37.9123
2007-06-05,37.7528
2007-06-06,37.3144
2007-06-07,36.6668
2007-06-08,36.8461
2007-06-11,36.607
2007-06-12,35.8498
2007-06-13,36.328
2007-06-14,37.0653
2007-06-15,37.7827
2007-06-18,36.9557
2007-06-19,36.9258
2007-06-20,35.9693
2007-06-21,36.069
2007-06-22,35.6804
2007-06-25,35.232
2007-06-26,35.3316
2007-06-27,35.8099
2007-06-28,35.9892
2007-06-29,35.4313
2007-07-02,36.4675
2007-07-03,36.6568
2007-07-05,36.7963
2007-07-06,36.876
2007-07-09,36.6469
2007-07-10,36.2583
2007-07-11,36.7266
2007-07-12,37.4938
2007-07-13,37.7728
2007-07-16,37.424
2007-07-17,38.1414
2007-07-18,39.0481
2007-07-19,37.7628
2007-07-20,37.8126
2007-07-23,37.9322
2007-07-24,36.9757
2007-07-25,36.4575
2007-07-26,35.78
2007-07-27,35.38
2007-07-30,36.07
2007-07-31,36.4
2007-08-01,36.98
2007-08-02,37.04
2007-08-03,36.18
2007-08-06,36.61
2007-08-07,36.34
2007-08-08,38.91
2007-08-09,37.97
2007-08-10,38.84
2007-08-13,38.27
2007-08-14,37.3
2007-08-15,35.82
2007-08-16,37.49
2007-08-17,37.58
2007-08-20,36.67
2007-08-21,36.38
2007-08-22,36.55
2007-08-23,36.04
2007-08-24,36.6
2007-08-27,35.73
2007-08-28,34.9
2007-08-29,35.72
2007-08-30,36.07
2007-08-31,36.33
2007-09-04,36.04
2007-09-05,35.48
2007-09-06,34.7
2007-09-07,34.2
2007-09-10,34.12
2007-09-11,34.76
2007-09-12,34.17
2007-09-13,33.91
2007-09-14,34.11
2007-09-17,33.78
2007-09-18,34.92
2007-09-19,35.99
2007-09-20,36.02
2007-09-21,36.62
2007-09-24,36.55
2007-09-25,36.46
2007-09-26,37.31
2007-09-27,37.57
2007-09-28,37.87
2007-10-01,38.33
2007-10-02,39.26
2007-10-03,39.02
2007-10-04,38.99
2007-10-05,39.93
2007-10-08,39.49
2007-10-09,39.78
2007-10-10,38.79
2007-10-11,38.57
2007-10-12,39.59
2007-10-15,39.01
2007-10-16,39.15
2007-10-17,39.15
2007-10-18,41.87
2007-10-19,41.0
2007-10-22,44.16
2007-10-23,44.44
2007-10-24,43.19
2007-10-25,43.51
2007-10-26,44.39
2007-10-29,43.34
2007-10-30,43.36
2007-10-31,44.7
2007-11-01,42.82
2007-11-02,42.96
2007-11-05,43.34
2007-11-06,43.93
2007-11-07,41.74
2007-11-08,42.17
2007-11-09,41.62
2007-11-12,41.83
2007-11-13,42.9
2007-11-14,42.32
2007-11-15,41.52
2007-11-16,41.44
2007-11-19,40.82
2007-11-20,40.96
2007-11-21,40.99
2007-11-23,42.0
2007-11-26,40.49
2007-11-27,40.89
2007-11-28,43.46
2007-11-29,42.32
2007-11-30,42.21
2007-12-03,41.42
2007-12-04,40.87
2007-12-05,42.15
2007-12-06,43.34
2007-12-07,43.45
2007-12-10,43.56
2007-12-11,42.44
2007-12-12,43.01
2007-12-13,42.47
2007-12-14,41.72
2007-12-17,40.39
2007-12-18,40.82
2007-12-19,39.88
2007-12-20,40.46
2007-12-21,42.41
2007-12-24,43.4
2007-12-26,43.21
2007-12-27,41.62
2007-12-28,41.69
2007-12-31,40.91
2008-01-02,39.96
2008-01-03,39.42
2008-01-04,40.41
2008-01-07,39.84
2008-01-08,38.51
2008-01-09,39.73
2008-01-10,39.69
2008-01-11,38.0
2008-01-14,39.02
